Angle,Intensity
0.0060120240,0.9967200000
0.0120240500,0.9934480000
0.0180360700,0.9901820000
0.0240481000,0.9869190000
0.0300601200,0.9836570000
0.0360721400,0.9803930000
0.0420841700,0.9771240000
0.0480961900,0.9738490000
0.0541082100,0.9705640000
0.0601202400,0.9672660000
0.0661322600,0.9639540000
0.0721442800,0.9606240000
0.0781563100,0.9572740000
0.0841683400,0.9539000000
0.0901803600,0.9504990000
0.0961923800,0.9470690000
0.1022040000,0.9436050000
0.1082160000,0.9401050000
0.1142280000,0.9365650000
0.1202400000,0.9329800000
0.1262530000,0.9293470000
0.1322650000,0.9256620000
0.1382770000,0.9219200000
0.1442890000,0.9181150000
0.1503010000,0.9142430000
0.1563130000,0.9102980000
0.1623250000,0.9062730000
0.1683370000,0.9021620000
0.1743490000,0.8979580000
0.1803610000,0.8936530000
0.1863730000,0.8892370000
0.1923850000,0.8847020000
0.1983970000,0.8800370000
0.2044090000,0.8752300000
0.2104210000,0.8702680000
0.2164330000,0.8651370000
0.2224450000,0.8598210000
0.2284570000,0.8543000000
0.2344690000,0.8485560000
0.2404810000,0.8425630000
0.2464930000,0.8362950000
0.2525050000,0.8297220000
0.2585170000,0.8228070000
0.2645290000,0.8155080000
0.2705410000,0.8077760000
0.2765530000,0.7995540000
0.2825650000,0.7907710000
0.2885770000,0.7813440000
0.2945890000,0.7711710000
0.3006010000,0.7601260000
0.3066130000,0.7480530000
0.3126250000,0.7347530000
0.3186370000,0.7199720000
0.3246490000,0.7033800000
0.3306610000,0.6845390000
0.3366730000,0.6628650000
0.3426850000,0.6375670000
0.3486970000,0.6075890000
0.3547090000,0.5715920000
0.3607210000,0.5281410000
0.3667330000,0.4765450000
0.3727450000,0.4186400000
0.3787580000,0.3598220000
0.3847700000,0.3062120000
0.3907820000,0.2608710000
0.3967940000,0.2237800000
0.4028060000,0.1936490000
0.4088180000,0.1690440000
0.4148300000,0.1487570000
0.4208420000,0.1318490000
0.4268540000,0.1176120000
0.4328660000,0.1055060000
0.4388780000,0.0951246300
0.4448900000,0.0861519000
0.4509020000,0.0783411400
0.4569140000,0.0714982500
0.4629260000,0.0654728500
0.4689380000,0.0601374000
0.4749500000,0.0553856600
0.4809620000,0.0511478600
0.4869740000,0.0473438000
0.4929860000,0.0439120000
0.4989980000,0.0408293200
0.5050100000,0.0380171100
0.5110220000,0.0354733400
0.5170340000,0.0331602400
0.5230460000,0.0310245100
0.5290580000,0.0291078300
0.5350700000,0.0273027300
0.5410820000,0.0256879400
0.5470940000,0.0241663200
0.5531060000,0.0227779900
0.5591180000,0.0215006700
0.5651300000,0.0202875800
0.5711420000,0.0192154900
0.5771540000,0.0181458900
0.5831660000,0.0172415400
0.5891780000,0.0162949600
0.5951900000,0.0155258500
0.6012020000,0.0146869000
0.6072140000,0.0140272500
0.6132260000,0.0132822800
0.6192380000,0.0127129400
0.6252500000,0.0120488000
0.6312620000,0.0115562100
0.6372750000,0.0109601000
0.6432870000,0.0105349200
0.6492990000,0.0099946860
0.6553110000,0.0096304970
0.6613230000,0.0091349770
0.6673350000,0.0088270920
0.6733470000,0.0083666990
0.6793590000,0.0081109640
0.6853710000,0.0076783500
0.6913830000,0.0074699660
0.6973950000,0.0070608680
0.7034070000,0.0068931070
0.7094190000,0.0065072110
0.7154310000,0.0063704190
0.7214430000,0.0060119400
0.7274550000,0.0058929630
0.7334670000,0.0055705330
0.7394790000,0.0054532010
0.7454910000,0.0051786350
0.7515030000,0.0050455290
0.7575150000,0.0048311200
0.7635270000,0.0046668800
0.7695390000,0.0045213810
0.7755510000,0.0043170680
0.7815630000,0.0042410180
0.7875750000,0.0039984990
0.7935870000,0.0039804550
0.7995990000,0.0037150190
0.8056110000,0.0037303650
0.8116230000,0.0034698330
0.8176350000,0.0034839600
0.8236470000,0.0032630630
0.8296590000,0.0032392780
0.8356710000,0.0030896300
0.8416830000,0.0030005380
0.8476950000,0.0029387950
0.8537070000,0.0027774570
0.8597190000,0.0027960120
0.8657310000,0.0025821100
0.8717430000,0.0026470720
0.8777550000,0.0024238780
0.8837670000,0.0024835140
0.8897800000,0.0023042580
0.8957920000,0.0023068440
0.9018040000,0.0022140800
0.9078160000,0.0021292970
0.9138280000,0.0021351440
0.9198400000,0.0019696450
0.9258520000,0.0020466430
0.9318640000,0.0018450290
0.9378760000,0.0019342560
0.9438880000,0.0017619970
0.9499000000,0.0017976780
0.9559120000,0.0017114270
0.9619240000,0.0016522610
0.9679360000,0.0016709030
0.9739480000,0.0015226040
0.9799600000,0.0016146150
0.9859720000,0.0014302250
0.9919840000,0.0015265390
0.9979960000,0.0013812760
1.0040100000,0.0014099360
1.0100200000,0.0013614010
1.0160300000,0.0012869880
1.0220400000,0.0013419640
1.0280600000,0.0011873400
1.0340700000,0.0012953100
1.0400800000,0.0011310460
1.0460900000,0.0012110650
1.0521000000,0.0011156780
1.0581200000,0.0011033220
1.0641300000,0.0011162140
1.0701400000,0.0010032880
1.0761500000,0.0010991160
1.0821600000,0.0009404579
1.0881800000,0.0010429740
1.0941900000,0.0009235393
1.1002000000,0.0009527123
1.1062100000,0.0009336663
1.1122200000,0.0008574148
1.1182400000,0.0009355761
1.1242500000,0.0007918171
1.1302600000,0.0009004755
1.1362700000,0.0007729669
1.1422800000,0.0008257024
1.1483000000,0.0007878179
1.1543100000,0.0007372985
1.1603200000,0.0008012992
1.1663300000,0.0006725451
1.1723400000,0.0007802759
1.1783600000,0.0006537358
1.1843700000,0.0007171330
1.1903800000,0.0006717676
1.1963900000,0.0006357166
1.2024000000,0.0006920060
1.2084200000,0.0005744784
1.2144300000,0.0006791966
1.2204400000,0.0005582536
1.2264500000,0.0006235267
1.2324600000,0.0005794504
1.2384800000,0.0005482811
1.2444900000,0.0006032854
1.2505000000,0.0004925299
1.2565100000,0.0005939497
1.2625200000,0.0004812930
1.2685400000,0.0005420886
1.2745500000,0.0005060261
1.2805600000,0.0004722034
1.2865700000,0.0005310031
1.2925900000,0.0004236044
1.2986000000,0.0005212986
1.3046100000,0.0004193300
1.3106200000,0.0004704445
1.3166300000,0.0004476565
1.3226500000,0.0004056660
1.3286600000,0.0004714513
1.3346700000,0.0003658673
1.3406800000,0.0004582372
1.3466900000,0.0003699206
1.3527100000,0.0004066862
1.3587200000,0.0004011773
1.3647300000,0.0003476079
1.3707400000,0.0004212817
1.3767500000,0.0003182692
1.3827700000,0.0004021698
1.3887800000,0.0003312101
1.3947900000,0.0003494735
1.4008000000,0.0003637864
1.4068100000,0.0002975753
1.4128300000,0.0003775412
1.4188400000,0.0002801787
1.4248500000,0.0003510543
1.4308600000,0.0003014895
1.4368700000,0.0002981308
1.4428900000,0.0003328186
1.4489000000,0.0002555789
1.4549100000,0.0003376712
1.4609200000,0.0002510378
1.4669300000,0.0003035644
1.4729500000,0.0002789202
1.4789600000,0.0002526626
1.4849700000,0.0003056759
1.4909800000,0.0002218812
1.4969900000,0.0002996747
1.5030100000,0.0002300446
1.5090200000,0.0002592216
1.5150300000,0.0002613470
1.5210400000,0.0002136614
1.5270500000,0.0002799330
1.5330700000,0.0001966737
1.5390800000,0.0002623269
1.5450900000,0.0002158822
1.5511000000,0.0002184261
1.5571100000,0.0002463228
1.5631300000,0.0001820363
1.5691400000,0.0002535915
1.5751500000,0.0001797146
1.5811600000,0.0002253670
1.5871700000,0.0002065851
1.5931900000,0.0001823361
1.5992000000,0.0002313171
1.6052100000,0.0001586176
1.6112200000,0.0002254211
1.6172300000,0.0001700038
1.6232500000,0.0001895916
1.6292600000,0.0001995965
1.6352700000,0.0001525286
1.6412800000,0.0002141133
1.6472900000,0.0001436748
1.6533100000,0.0001952863
1.6593200000,0.0001656021
1.6653300000,0.0001567219
1.6713400000,0.0001920690
1.6773500000,0.0001304952
1.6833700000,0.0001933192
1.6893800000,0.0001364799
1.6953900000,0.0001643035
1.7014000000,0.0001637204
1.7074100000,0.0001290071
1.7134300000,0.0001814371
1.7194400000,0.0001170132
1.7254500000,0.0001688064
1.7314600000,0.0001350932
1.7374700000,0.0001346992
1.7434900000,0.0001611438
1.7495000000,0.0001085624
1.7555100000,0.0001660523
1.7615200000,0.0001116116
1.7675300000,0.0001419252
1.7735500000,0.0001364729
1.7795600000,0.0001093024
1.7855700000,0.0001549200
1.7915800000,0.0000966144
1.7976000000,0.0001457540
1.8036100000,0.0001123170
1.8096200000,0.0001153323
1.8156300000,0.0001370461
1.8216400000,0.0000907615
1.8276600000,0.0001431754
1.8336700000,0.0000928681
1.8396800000,0.0001221122
1.8456900000,0.0001158443
1.8517000000,0.0000923491
1.8577200000,0.0001335459
1.8637300000,0.0000806181
1.8697400000,0.0001257759
1.8757500000,0.0000952487
1.8817600000,0.0000981591
1.8877800000,0.0001183011
1.8937900000,0.0000759935
1.8998000000,0.0001239871
1.9058100000,0.0000786103
1.9118200000,0.0001045501
1.9178400000,0.0001002093
1.9238500000,0.0000776073
1.9298600000,0.0001162348
1.9358700000,0.0000679407
1.9418800000,0.0001083906
1.9479000000,0.0000824531
1.9539100000,0.0000828991
1.9599200000,0.0001036216
1.9659300000,0.0000636739
1.9719400000,0.0001077226
1.9779600000,0.0000677797
1.9839700000,0.0000889294
1.9899800000,0.0000883236
1.9959900000,0.0000648060
2.0020000000,0.0001019943
2.0080200000,0.0000579493
2.0140300000,0.0000931006
2.0200400000,0.0000729046
2.0260500000,0.0000693608
2.0320600000,0.0000919403
2.0380800000,0.0000534980
2.0440900000,0.0000936670
2.0501000000,0.0000596759
2.0561100000,0.0000749809
2.0621200000,0.0000792008
2.0681400000,0.0000538117
2.0741500000,0.0000899664
2.0801600000,0.0000502479
2.0861700000,0.0000794665
2.0921800000,0.0000658256
2.0982000000,0.0000574369
2.1042100000,0.0000823674
2.1102200000,0.0000453016
2.1162300000,0.0000812179
2.1222400000,0.0000537770
2.1282600000,0.0000625045
2.1342700000,0.0000720378
2.1402800000,0.0000445796
2.1462900000,0.0000794391
2.1523000000,0.0000445602
2.1583200000,0.0000671577
2.1643300000,0.0000605791
2.1703400000,0.0000470920
2.1763500000,0.0000741763
2.1823600000,0.0000389831
2.1883800000,0.0000699108
2.1943900000,0.0000496489
2.2004000000,0.0000514073
2.2064100000,0.0000661690
2.2124200000,0.0000371077
2.2184400000,0.0000698617
2.2244500000,0.0000406333
2.2304600000,0.0000559763
2.2364700000,0.0000566124
2.2424800000,0.0000383528
2.2485000000,0.0000667734
2.2545100000,0.0000344415
2.2605200000,0.0000594428
2.2665300000,0.0000468687
2.2725500000,0.0000416838
2.2785600000,0.0000610121
2.2845700000,0.0000313997
2.2905800000,0.0000608398
2.2965900000,0.0000381894
2.3026100000,0.0000458602
2.3086200000,0.0000534004
2.3146300000,0.0000312810
2.3206400000,0.0000597048
2.3266500000,0.0000315356
2.3326700000,0.0000496731
2.3386800000,0.0000449965
2.3446900000,0.0000334161
2.3507000000,0.0000560838
2.3567100000,0.0000274272
2.3627300000,0.0000521496
2.3687400000,0.0000368967
2.3747500000,0.0000368678
2.3807600000,0.0000504551
2.3867700000,0.0000259353
2.3927900000,0.0000526654
2.3988000000,0.0000300430
2.4048100000,0.0000406159
2.4108200000,0.0000435791
2.4168300000,0.0000267225
2.4228500000,0.0000510079
2.4288600000,0.0000250863
2.4348700000,0.0000437358
2.4408800000,0.0000363576
2.4468900000,0.0000291506
2.4529100000,0.0000473474
2.4589200000,0.0000223269
2.4649300000,0.0000455143
2.4709400000,0.0000296522
2.4769500000,0.0000324173
2.4829700000,0.0000421609
2.4889800000,0.0000217148
2.4949900000,0.0000455488
2.5010000000,0.0000241701
2.5070100000,0.0000357019
2.5130300000,0.0000361160
2.5190400000,0.0000228973
2.5250500000,0.0000437517
2.5310600000,0.0000203727
2.5370700000,0.0000382819
2.5430900000,0.0000299502
2.5491000000,0.0000253091
2.5551100000,0.0000403299
2.5611200000,0.0000184402
2.5671300000,0.0000396326
2.5731500000,0.0000243506
2.5791600000,0.0000282864
2.5851700000,0.0000357132
2.5911800000,0.0000182764
2.5971900000,0.0000394729
2.6032100000,0.0000198621
2.6092200000,0.0000311607
2.6152300000,0.0000304665
2.6212400000,0.0000195585
2.6272500000,0.0000377720
2.6332700000,0.0000168284
2.6392800000,0.0000333650
2.6452900000,0.0000251905
2.6513000000,0.0000218081
2.6573100000,0.0000347290
2.6633300000,0.0000153675
2.6693400000,0.0000344907
2.6753500000,0.0000204442
2.6813600000,0.0000244754
2.6873700000,0.0000307100
2.6933900000,0.0000153818
2.6994000000,0.0000343245
2.7054100000,0.0000166598
2.7114200000,0.0000270164
2.7174300000,0.0000261835
2.7234500000,0.0000165956
2.7294600000,0.0000328558
2.7354700000,0.0000141094
2.7414800000,0.0000289736
2.7474900000,0.0000216479
2.7535100000,0.0000186140
2.7595200000,0.0000302525
2.7655300000,0.0000128862
2.7715400000,0.0000300115
2.7775500000,0.0000175543
2.7835700000,0.0000209845
2.7895800000,0.0000268150
2.7955900000,0.0000129117
2.8016000000,0.0000299546
2.8076200000,0.0000142625
2.8136300000,0.0000232616
2.8196400000,0.0000229287
2.8256500000,0.0000139635
2.8316600000,0.0000287882
2.8376800000,0.0000120064
2.8436900000,0.0000250594
2.8497000000,0.0000190037
2.8557100000,0.0000157221
2.8617200000,0.0000266403
2.8677400000,0.0000108718
2.8737500000,0.0000260952
2.8797600000,0.0000154158
2.8857700000,0.0000178139
2.8917800000,0.0000237530
2.8978000000,0.0000108075
2.9038100000,0.0000262108
2.9098200000,0.0000124770
2.9158300000,0.0000198687
2.9218400000,0.0000204357
2.9278600000,0.0000116439
2.9338700000,0.0000253751
2.9398800000,0.0000103927
2.9458900000,0.0000215611
2.9519000000,0.0000170278
2.9579200000,0.0000131252
2.9639300000,0.0000236786
2.9699400000,0.0000092536
2.9759500000,0.0000226407
2.9819600000,0.0000138495
2.9879800000,0.0000149499
2.9939900000,0.0000213042
3.0000000000,0.0000090399
