Angle,Intensity
0.22000,22907244.0
0.23000,23621774.0
0.24000,24232664.0
0.25000,24688368.0
0.26000,24970902.0
0.27000,25322862.0
0.28000,25751814.0
0.29000,26168600.0
0.30000,26499350.0
0.31000,26789582.0
0.32000,27150598.0
0.33000,27581266.0
0.34000,28014768.0
0.35000,28158320.0
0.36000,28288448.0
0.37000,28456126.0
0.38000,28640680.0
0.39000,28948320.0
0.40000,29090462.0
0.41000,29414010.0
0.42000,29618146.0
0.43000,29813230.0
0.44000,29800652.0
0.45000,29625094.0
0.46000,29413788.0
0.47000,29291628.0
0.48000,28809656.0
0.49000,28302288.0
0.50000,27770590.0
0.51000,27033480.0
0.52000,26337198.0
0.53000,25709962.0
0.54000,25098400.0
0.55000,24564280.0
0.56000,24372752.0
0.57000,23760408.0
0.58000,23001484.0
0.59000,22246964.0
0.60000,21561608.0
0.61000,20912412.0
0.62000,20244352.0
0.63000,19292322.0
0.64000,18268748.0
0.65000,17214812.0
0.66000,16182034.0
0.67000,14873764.0
0.68000,13279702.0
0.69000,11487066.0
0.70000,9621944.0
0.71000,7672846.0
0.72000,5772829.0
0.73000,4229582.0
0.74000,3194541.0
0.75000,2660060.0
0.76000,2426132.0
0.77000,2262728.0
0.78000,2053595.0
0.79000,1711025.0
0.80000,1300912.0
0.81000,883805.0
0.82000,525407.0
0.83000,265955.0
0.84000,134977.0
0.85000,116797.0
0.86000,174014.0
0.87000,272474.0
0.88000,374560.0
0.89000,446036.0
0.90000,475441.0
0.91000,459288.0
0.92000,410644.0
0.93000,333744.0
0.94000,245653.0
0.95000,161833.0
0.96000,93910.0
0.97000,46244.0
0.98000,20511.0
0.99000,16413.0
1.00000,28758.0
1.01000,51196.0
1.02000,77295.0
1.03000,102121.0
1.04000,120507.0
1.05000,132195.0
1.06000,134077.0
1.07000,127943.0
1.08000,115366.0
1.09000,97693.0
1.10000,80597.0
1.11000,63248.0
1.12000,48040.0
1.13000,35309.0
1.14000,27325.0
1.15000,23589.0
1.16000,23140.0
1.17000,25853.0
1.18000,30098.0
1.19000,35659.0
1.20000,40989.0
1.21000,45131.0
1.22000,47887.0
1.23000,49195.0
1.24000,47760.0
1.25000,45732.0
1.26000,41828.0
1.27000,37502.0
1.28000,32133.0
1.29000,27497.0
1.30000,23597.0
1.31000,20088.0
1.32000,17307.0
1.33000,15885.0
1.34000,15306.0
1.35000,15553.0
1.36000,16297.0
1.37000,17009.0
1.38000,18290.0
1.39000,19242.0
1.40000,19724.0
1.41000,20146.0
1.42000,20136.0
1.43000,19511.0
1.44000,18385.0
1.45000,17107.0
1.46000,15459.0
1.47000,13583.0
1.48000,12272.0
1.49000,11095.0
1.50000,9961.0
1.51000,9084.0
1.52000,8474.0
1.53000,8124.0
1.54000,8001.0
1.55000,8199.0
1.56000,8176.0
1.57000,8513.0
1.58000,8719.0
1.59000,8796.0
1.60000,8893.0
1.61000,8525.0
1.62000,8228.0
1.63000,7983.0
1.64000,7334.0
1.65000,6885.0
1.66000,6597.0
1.67000,5943.0
1.68000,5646.0
1.69000,4989.0
1.70000,4907.0
1.71000,4562.0
1.72000,4466.0
1.73000,4306.0
1.74000,4100.0
1.75000,4168.0
1.76000,4180.0
1.77000,4238.0
1.78000,4306.0
1.79000,4299.0
1.80000,4303.0
1.81000,4284.0
1.82000,4181.0
1.83000,4026.0
1.84000,3804.0
1.85000,3563.0
1.86000,3399.0
1.87000,3266.0
1.88000,3067.0
1.89000,2813.0
1.90000,2594.0
1.91000,2497.0
1.92000,2527.0
1.93000,2481.0
1.94000,2257.0
1.95000,2379.0
1.96000,2276.0
1.97000,2296.0
1.98000,2232.0
1.99000,2292.0
2.00000,2244.0
2.01000,2237.0
2.02000,2119.0
2.03000,2131.0
2.04000,2068.0
2.05000,1921.0
2.06000,1843.0
2.07000,1793.0
2.08000,1665.0
2.09000,1602.0
2.10000,1607.0
2.11000,1470.0
2.12000,1394.0
2.13000,1401.0
2.14000,1373.0
2.15000,1305.0
2.16000,1299.0
2.17000,1249.0
2.18000,1254.0
2.19000,1282.0
2.20000,1181.0
2.21000,1179.0
2.22000,1080.0
2.23000,1119.0
2.24000,1088.0
2.25000,1030.0
2.26000,1026.0
2.27000,1042.0
2.28000,978.0
2.29000,928.0
2.30000,860.0
2.31000,811.0
2.32000,792.0
2.33000,782.0
2.34000,759.0
2.35000,769.0
2.36000,737.0
2.37000,793.0
2.38000,681.0
2.39000,725.0
2.40000,724.0
2.41000,687.0
2.42000,646.0
2.43000,637.0
2.44000,607.0
2.45000,563.0
2.46000,550.0
2.47000,580.0
2.48000,556.0
2.49000,543.0
2.50000,475.0
2.51000,533.0
2.52000,471.0
2.53000,499.0
2.54000,418.0
2.55000,398.0
2.56000,432.0
2.57000,398.0
2.58000,373.0
2.59000,382.0
2.60000,351.0
2.61000,395.0
2.62000,328.0
2.63000,345.0
2.64000,347.0
2.65000,325.0
2.66000,330.0
2.67000,291.0
2.68000,307.0
2.69000,316.0
2.70000,271.0
2.71000,289.0
2.72000,265.0
2.73000,244.0
2.74000,243.0
2.75000,212.0
2.76000,216.0
2.77000,220.0
2.78000,207.0
2.79000,189.0
2.80000,197.0
2.81000,178.0
2.82000,197.0
2.83000,198.0
2.84000,176.0
2.85000,192.0
2.86000,165.0
2.87000,164.0
2.88000,171.0
2.89000,156.0
2.90000,149.0
2.91000,154.0
2.92000,160.0
2.93000,167.0
2.94000,135.0
2.95000,150.0
2.96000,145.0
2.97000,131.0
2.98000,122.0
2.99000,139.0
3.00000,119.0
3.01000,138.0
3.02000,115.0
3.03000,141.0
3.04000,114.0
3.05000,113.0
3.06000,106.0
3.07000,111.0
3.08000,123.0
3.09000,106.0
3.10000,90.0
3.11000,108.0
3.12000,114.0
3.13000,106.0
3.14000,109.0
3.15000,113.0
3.16000,95.0
3.17000,96.0
3.18000,87.0
3.19000,81.0
3.20000,84.0
3.21000,75.0
3.22000,77.0
3.23000,70.0
3.24000,70.0
3.25000,64.0
3.26000,69.0
3.27000,59.0
3.28000,60.0
3.29000,73.0
3.30000,59.0
3.31000,50.0
3.32000,58.0
3.33000,64.0
3.34000,44.0
3.35000,53.0
3.36000,34.0
3.37000,47.0
3.38000,47.0
3.39000,53.0
3.40000,41.0
3.41000,48.0
3.42000,38.0
3.43000,30.0
3.44000,35.0
3.45000,39.0
3.46000,25.0
3.47000,23.0
3.48000,39.0
3.49000,25.0
3.50000,30.0
3.51000,12.0
3.52000,29.0
3.53000,31.0
3.54000,15.0
3.55000,11.0
3.56000,14.0
3.57000,13.0
3.58000,7.0
3.59000,17.0
3.60000,18.0
3.61000,13.0
3.62000,7.0
3.63000,14.0
3.64000,17.0
3.65000,16.0
3.66000,13.0
3.67000,14.0
3.68000,9.0
3.69000,11.0
3.70000,12.0
3.71000,7.0
3.72000,14.0
3.73000,12.0
3.74000,8.0
3.75000,7.0
3.76000,9.0
3.77000,9.0
3.78000,8.0
3.79000,6.0
3.80000,12.0
3.81000,9.0
3.82000,6.0
3.83000,3.0
3.84000,5.0
3.85000,4.0
3.86000,7.0
3.87000,6.0
3.88000,3.0
3.89000,5.0
3.90000,8.0
3.91000,3.0
3.92000,6.0
3.93000,8.0
3.94000,8.0
3.95000,7.0
3.96000,4.0
3.97000,7.0
3.98000,3.0
3.99000,7.0
4.00000,8.0
4.01000,3.0
4.02000,9.0
4.03000,4.0
4.04000,2.0
4.05000,5.0
4.06000,2.0
4.07000,3.0
4.08000,3.0
4.09000,3.0
4.10000,2.0
4.11000,1.0
4.12000,2.0
4.13000,2.0
4.14000,6.0
4.15000,0.0
4.16000,3.0
4.17000,3.0
4.18000,5.0
4.19000,2.0
4.20000,3.0
4.21000,6.0
4.22000,2.0
4.23000,2.0
4.24000,4.0
4.25000,2.0
4.26000,4.0
4.27000,4.0
4.28000,0.0
4.29000,1.0
4.30000,3.0
4.31000,3.0
4.32000,0.0
4.33000,2.0
4.34000,2.0
4.35000,3.0
4.36000,1.0
4.37000,3.0
4.38000,0.0
4.39000,0.0
4.40000,5.0
4.41000,2.0
4.42000,4.0
4.43000,2.0
4.44000,4.0
4.45000,3.0
4.46000,2.0
4.47000,3.0
4.48000,2.0
4.49000,0.0
4.50000,2.0
4.51000,1.0
4.52000,4.0
4.53000,3.0
4.54000,2.0
4.55000,3.0
4.56000,2.0
4.57000,4.0
4.58000,4.0
4.59000,1.0
4.60000,3.0
4.61000,3.0
4.62000,3.0
4.63000,4.0
4.64000,2.0
4.65000,6.0
4.66000,3.0
4.67000,1.0
4.68000,1.0
4.69000,2.0
4.70000,0.0
4.71000,3.0
4.72000,4.0
4.73000,5.0
4.74000,1.0
4.75000,1.0
4.76000,1.0
4.77000,4.0
4.78000,1.0
4.79000,1.0
4.80000,2.0
4.81000,3.0
4.82000,2.0
4.83000,0.0
4.84000,4.0
4.85000,1.0
4.86000,2.0
4.87000,1.0
4.88000,1.0
4.89000,2.0
4.90000,2.0
4.91000,3.0
4.92000,2.0
4.93000,4.0
4.94000,1.0
4.95000,3.0
4.96000,2.0
4.97000,3.0
4.98000,0.0
4.99000,0.0
5.00000,5.0
5.01000,3.0
5.02000,2.0
5.03000,2.0
5.04000,2.0
5.05000,4.0
5.06000,3.0
5.07000,5.0
5.08000,2.0
5.09000,5.0
5.10000,1.0
5.11000,3.0
5.12000,3.0
5.13000,2.0
5.14000,5.0
5.15000,0.0
5.16000,2.0
5.17000,4.0
5.18000,6.0
5.19000,1.0
5.20000,1.0
5.21000,1.0
5.22000,2.0
5.23000,2.0
5.24000,2.0
5.25000,3.0
5.26000,1.0
5.27000,5.0
5.28000,2.0
5.29000,2.0
5.30000,0.0
5.31000,0.0
5.32000,2.0
5.33000,3.0
5.34000,2.0
5.35000,2.0
5.36000,1.0
5.37000,4.0
5.38000,3.0
5.39000,2.0
5.40000,3.0
5.41000,5.0
5.42000,3.0
5.43000,3.0
5.44000,0.0
5.45000,1.0
5.46000,4.0
5.47000,4.0
5.48000,3.0
5.49000,2.0
5.50000,1.0
5.51000,1.0
5.52000,2.0
5.53000,1.0
5.54000,0.0
5.55000,4.0
5.56000,1.0
5.57000,0.0
5.58000,1.0
5.59000,0.0
5.60000,1.0
5.61000,1.0
5.62000,1.0
5.63000,4.0
5.64000,3.0
5.65000,3.0
5.66000,2.0
5.67000,3.0
5.68000,0.0
5.69000,0.0
5.70000,5.0
5.71000,3.0
5.72000,2.0
5.73000,2.0
5.74000,0.0
5.75000,2.0
5.76000,2.0
5.77000,1.0
5.78000,0.0
5.79000,1.0
5.80000,2.0
5.81000,1.0
5.82000,1.0
5.83000,4.0
5.84000,1.0
5.85000,1.0
5.86000,1.0
5.87000,1.0
5.88000,1.0
5.89000,1.0
5.90000,0.0
5.91000,3.0
5.92000,0.0
5.93000,1.0
5.94000,1.0
5.95000,1.0
5.96000,1.0
5.97000,0.0
5.98000,1.0
